Wavelength,Spectrum Fit
380,0.102769895192369
381,0.102673828416314
382,0.10264167562364
383,0.10267703045644
384,0.102783362122734
385,0.102964000804034
386,0.103222123210831
387,0.103560738375218
388,0.103982673772387
389,0.104490561864567
390,0.10508696193794
391,0.105773862520712
392,0.106553350282703
393,0.107427179089956
394,0.10839688623481
395,0.109463812370107
396,0.110629107501113
397,0.1118940832223
398,0.113260635762183
399,0.114732128424604
400,0.116317760775838
401,0.118041490601631
402,0.119964342639885
403,0.12224953588369
404,0.125293786192655
405,0.129951619305524
406,0.137293860226595
407,0.148326073176466
408,0.163131694431634
409,0.180175830691039
410,0.200601716002434
411,0.22138079197645
412,0.244167890605956
413,0.268900054373135
414,0.294621692870523
415,0.321317084522003
416,0.349908372461295
417,0.379462738766407
418,0.409975261080321
419,0.440517767927641
420,0.471089203875536
421,0.499823938910677
422,0.528585541823013
423,0.556438028386548
424,0.584318178040438
425,0.612219417121067
426,0.640143426009374
427,0.669950748367144
428,0.698846313082998
429,0.726834625362385
430,0.753908742286153
431,0.778211339876064
432,0.801597394792579
433,0.82313896462697
434,0.8437642550604
435,0.864398591827653
436,0.885970230062775
437,0.906621776637654
438,0.927278616806455
439,0.945148203050029
440,0.960232129941269
441,0.970667485408494
442,0.978311674607436
443,0.983169340644239
444,0.987095315022708
445,0.990091099100438
446,0.994016808676638
447,0.997940177527758
448,1
449,0.999271986831477
450,0.993874264518158
451,0.98474828522872
452,0.970964701147929
453,0.955309844117477
454,0.937784117032526
455,0.921201739011429
456,0.905506531287466
457,0.889823564117497
458,0.876011896831736
459,0.862154907628389
460,0.849238130978587
461,0.835401677848049
462,0.8215195697141
463,0.807646119786763
464,0.79096436764138
465,0.773334066832556
466,0.753824109457812
467,0.732434858176978
468,0.709166827221615
469,0.684948201489972
470,0.659780602025278
471,0.634593409974267
472,0.609387267558737
473,0.584165787651366
474,0.558959231346172
475,0.534647910619447
476,0.510368672315985
477,0.487962285619094
478,0.466548091571689
479,0.446100573397174
480,0.426716589623759
481,0.40935059008783
482,0.393098420105872
483,0.378092867918131
484,0.363554256479418
485,0.350533669846582
486,0.339086948932287
487,0.329310682586896
488,0.320614274097455
489,0.313590544073043
490,0.308023360609237
491,0.303944930866619
492,0.300402153679169
493,0.297496012020283
494,0.295019453903697
495,0.292697362789104
496,0.290572009975502
497,0.288473688031979
498,0.286371765590061
499,0.284296817642076
500,0.282150439295808
501,0.279943464121597
502,0.277657771215491
503,0.275281658225089
504,0.27280655071667
505,0.270226759953257
506,0.267535410604706
507,0.264731530744947
508,0.261812214746702
509,0.258776706764199
510,0.255622919292001
511,0.252351865120972
512,0.248963685649324
513,0.245458810923952
514,0.241840061659888
515,0.238108669250129
516,0.234268469276111
517,0.230322712692332
518,0.226274728284145
519,0.222128551614533
520,0.217889383244426
521,0.213561845210968
522,0.20915044724441
523,0.204660910759438
524,0.200100026835801
525,0.195472777501093
526,0.190785757085346
527,0.186046565129591
528,0.181260889494383
529,0.176436454502763
530,0.171580107624288
531,0.166699754183622
532,0.161802874768584
533,0.156897366173889
534,0.151991125388442
535,0.147092412196322
536,0.142210339571791
537,0.137353011694317
538,0.132529496051662
539,0.127749351227484
540,0.123020905055078
541,0.118353407295335
542,0.11375887283096
543,0.109245837394067
544,0.104828962884386
545,0.100517351057207
546,0.0963231748174882
547,0.0922643456419436
548,0.0883566682608467
549,0.0846841378147651
550,0.0812312875867118
551,0.0780112355927138
552,0.0750555568912112
553,0.0723774123803187
554,0.0699432123417043
555,0.067729974126524
556,0.0657067732775211
557,0.0638395363634415
558,0.062119165695372
559,0.0604916863582663
560,0.0589602799724938
561,0.0575317837251043
562,0.0561397232586575
563,0.0547988017504667
564,0.0535030139906142
565,0.0522478100419672
566,0.0510005703997425
567,0.0497614933300536
568,0.0485568872961527
569,0.0473585160448113
570,0.0461942627202773
571,0.045036273235227
572,0.0439117466237815
573,0.0427941485755927
574,0.0416831550523591
575,0.0406054486009449
576,0.03950636480624
577,0.0384122360515469
578,0.0373814735113077
579,0.0363568303253717
580,0.0354233270115559
581,0.0345236289964623
582,0.0336850779016643
583,0.032878798056921
584,0.0321033737919094
585,0.0313579675574227
586,0.0306121594744848
587,0.0298943646132455
588,0.029174272746722
589,0.0284526192646671
590,0.0277544632063611
591,0.0270795167677774
592,0.0263997762638638
593,0.0257409288819177
594,0.0251026048885375
595,0.0244555556777665
596,0.0238543159561166
597,0.0232423411798958
598,0.0226466922569729
599,0.0220663903756935
600,0.0215004909053402
601,0.0209487132597806
602,0.0204096145431858
603,0.0198823440486024
604,0.0193374004017409
605,0.0188314472880988
606,0.018306372227313
607,0.0178189078902424
608,0.017311009683684
609,0.0168114331238539
610,0.0163189685814255
611,0.0158330972751628
612,0.0153820334331358
613,0.0149085445415316
614,0.014468970198462
615,0.0140048732133282
616,0.0135777645839869
617,0.0131226426023919
618,0.0127006555367667
619,0.0123102302542256
620,0.0118955844360893
621,0.0115122224110964
622,0.0111320271977716
623,0.0107538880457425
624,0.0103788773900393
625,0.0100055346696669
626,0.00963432537563494
627,0.00926502763264007
628,0.00889692236445988
629,0.00853108616105458
630,0.00816682228907169
631,0.00783266219844245
632,0.00749909228683913
633,0.00716805574418004
634,0.00686549706839522
635,0.00656460219146691
636,0.00626529697976372
637,0.00599488387146269
638,0.00572529278031035
639,0.00548511122717424
640,0.00524557812979905
641,0.00500734616253256
642,0.00476960651490677
643,0.00456115459985276
644,0.00435254382763869
645,0.00414501443263047
646,0.00393732453940704
647,0.00373065609508933
648,0.00355305417793888
649,0.00337514899618832
650,0.00317005770140883
651,0.00302069978690849
652,0.00283920352102432
653,0.00267978309281615
654,0.00252959780430763
655,0.00238585167042098
656,0.00224727632737939
657,0.00211792206257028
658,0.00199465209022063
659,0.00187714404486162
660,0.00176556701387696
661,0.00166273232435909
662,0.00156294139397128
663,0.00146906424053775
664,0.00137821702321228
665,0.00129600793872084
666,0.00121407371493114
667,0.00114069683058313
668,0.00107039210922665
669,0.0010030214199635
670,0.000938644503457318
671,0.000880058470036239
672,0.000824395479398769
673,0.000768902651499611
674,0.000719134073677513
675,0.000672337342143463
676,0.000628439965617725
677,0.000587452476260422
678,0.00054655933140583
679,0.000511372930620706
680,0.000476340993765625
681,0.000444135264967206
682,0.00041208095053734
683,0.000385663543321306
684,0.000356524110429091
685,0.000333075271304024
686,0.000306837218816407
687,0.000285794484518596
688,0.000264765894786123
689,0.000245498621981751
690,0.000227928187947056
691,0.000211555542029774
692,0.000196680501561652
693,0.000183225371233592
694,0.000170371670063322
695,0.000158675217998178
696,0.000147579214173063
697,0.00013734482230434
698,0.000127704307398211
699,0.000118650289360784
700,0.000110468873165366
701,0.000102586208268414
702,9.55634286763715e-05
703,8.88445704640924e-05
704,8.24236483530406e-05
705,7.65805067924781e-05
706,7.10272086816342e-05
707,6.57775729765453e-05
708,6.10987489550808e-05
709,5.6709852749695e-05
710,5.26170983605749e-05
711,4.85396261594513e-05
712,4.50323564921797e-05
713,4.18138132565068e-05
714,3.88915262958914e-05
715,3.59700195630268e-05
716,3.33444979580525e-05
717,3.10009787638093e-05
718,2.88120812279706e-05
719,2.67648550248735e-05
720,2.48655979471403e-05
721,2.31079335334187e-05
722,2.14482075938504e-05
723,1.99254915123432e-05
724,1.85216625857734e-05
725,1.72061773135062e-05
726,1.60075694994479e-05
727,1.48958760714356e-05
728,1.38441954582652e-05
729,1.28793504717106e-05
730,1.20011784144999e-05
731,1.11817025720541e-05
732,1.03926936630329e-05
733,9.6621946961405e-06
734,9.01767721057081e-06
735,8.3748388644243e-06
736,7.78986326377544e-06
737,7.23453036063047e-06
738,6.7363820013813e-06
739,6.26853901612984e-06
740,5.83034708679457e-06
741,5.44922443427628e-06
742,5.06901345079025e-06
743,4.74648015799909e-06
744,4.42476802765694e-06
745,4.13200009352703e-06
746,3.83939288386771e-06
747,3.5763453370714e-06
748,3.34157336079966e-06
749,3.10820709919712e-06
750,2.91083844933472e-06
751,2.71770445890503e-06
752,2.53656923196653e-06
753,2.36678870011143e-06
754,2.2111635546569e-06
755,2.06476801504058e-06
756,1.93001492775808e-06
757,1.80397721848494e-06
758,1.68676467390874e-06
759,1.57550823217739e-06
760,1.47294066074649e-06
761,1.37624445089155e-06
762,1.28542860600999e-06
763,1.20328402241714e-06
764,1.12420590136452e-06
765,1.05092186136896e-06
766,9.83492758508858e-07
767,9.21858571955163e-07
768,8.6326700628091e-07
769,8.07530940378825e-07
770,7.54832958561433e-07
771,7.07844339043283e-07
772,6.60961630061824e-07
773,6.19848276737894e-07
774,5.78830975484709e-07
775,5.43528790699277e-07
776,5.08376943023335e-07
777,4.76123837031606e-07
778,4.46768172893876e-07
779,4.20308732275941e-07
780,3.93930865070178e-07
